x den vel pres
0.000625 0.444994 0.698059 5.39989
0.001875 0.444988 0.698111 5.3998
0.003125 0.44498 0.69819 5.39965
0.004375 0.444967 0.698306 5.39944
0.005625 0.444947 0.698493 5.3991
0.006875 0.444916 0.698778 5.39857
0.008125 0.44487 0.699207 5.39779
0.009375 0.444801 0.69984 5.39663
0.010625 0.444703 0.700756 5.39495
0.011875 0.444563 0.70205 5.39258
0.013125 0.44437 0.703835 5.38931
0.014375 0.444116 0.706197 5.38498
0.015625 0.4438 0.709126 5.37963
0.016875 0.443428 0.712583 5.37331
0.018125 0.443004 0.716525 5.36611
0.019375 0.442532 0.720908 5.35812
0.020625 0.442019 0.725683 5.34943
0.021875 0.44147 0.730805 5.34012
0.023125 0.440888 0.736229 5.33027
0.024375 0.440279 0.741914 5.31997
0.025625 0.439647 0.747822 5.30928
0.026875 0.438995 0.75392 5.29826
0.028125 0.438327 0.76018 5.28698
0.029375 0.437645 0.766575 5.27547
0.030625 0.436952 0.773085 5.26378
0.031875 0.43625 0.779692 5.25193
0.033125 0.43554 0.78638 5.23997
0.034375 0.434823 0.793138 5.2279
0.035625 0.434101 0.799955 5.21575
0.036875 0.433374 0.806822 5.20354
0.038125 0.432645 0.813733 5.19127
0.039375 0.431912 0.820681 5.17896
0.040625 0.431176 0.827662 5.16662
0.041875 0.430439 0.834671 5.15425
0.043125 0.4297 0.841705 5.14187
0.044375 0.428959 0.848762 5.12947
0.045625 0.428218 0.855837 5.11707
0.046875 0.427476 0.86293 5.10465
0.048125 0.426733 0.87004 5.09224
0.049375 0.42599 0.877163 5.07983
0.050625 0.425247 0.8843 5.06742
0.051875 0.424503 0.891448 5.05502
0.053125 0.423759 0.898608 5.04262
0.054375 0.423015 0.905777 5.03023
0.055625 0.422271 0.912956 5.01786
0.056875 0.421528 0.920144 5.00549
0.058125 0.420785 0.927339 4.99314
0.059375 0.420041 0.934542 4.9808
0.060625 0.419299 0.941752 4.96847
0.061875 0.418556 0.948968 4.95616
0.063125 0.417814 0.95619 4.94387
0.064375 0.417073 0.963417 4.93159
0.065625 0.416332 0.97065 4.91933
0.066875 0.415592 0.977888 4.90709
0.068125 0.414852 0.98513 4.89486
0.069375 0.414113 0.992377 4.88266
0.070625 0.413374 0.999627 4.87047
0.071875 0.412637 1.00688 4.8583
0.073125 0.411899 1.01414 4.84616
0.074375 0.411163 1.0214 4.83403
0.075625 0.410427 1.02867 4.82192
0.076875 0.409692 1.03593 4.80984
0.078125 0.408958 1.04321 4.79778
0.079375 0.408225 1.05048 4.78573
0.080625 0.407492 1.05776 4.77371
0.081875 0.40676 1.06503 4.76172
0.083125 0.406029 1.07231 4.74974
0.084375 0.405299 1.0796 4.73778
0.085625 0.404569 1.08688 4.72585
0.086875 0.403841 1.09417 4.71394
0.088125 0.403113 1.10146 4.70206
0.089375 0.402386 1.10875 4.69019
0.090625 0.401661 1.11604 4.67835
0.091875 0.400936 1.12334 4.66653
0.093125 0.400211 1.13063 4.65474
0.094375 0.399488 1.13793 4.64297
0.095625 0.398766 1.14523 4.63122
0.096875 0.398045 1.15253 4.61949
0.098125 0.397324 1.15983 4.60779
0.099375 0.396605 1.16713 4.59611
0.100625 0.395886 1.17444 4.58446
0.101875 0.395168 1.18174 4.57283
0.103125 0.394452 1.18905 4.56122
0.104375 0.393736 1.19635 4.54964
0.105625 0.393021 1.20366 4.53808
0.106875 0.392307 1.21097 4.52654
0.108125 0.391594 1.21828 4.51503
0.109375 0.390882 1.22559 4.50354
0.110625 0.390171 1.2329 4.49208
0.111875 0.389461 1.24021 4.48064
0.113125 0.388752 1.24752 4.46922
0.114375 0.388044 1.25483 4.45783
0.115625 0.387337 1.26214 4.44646
0.116875 0.386631 1.26946 4.43512
0.118125 0.385926 1.27677 4.4238
0.119375 0.385222 1.28408 4.41251
0.120625 0.384519 1.2914 4.40123
0.121875 0.383817 1.29871 4.38999
0.123125 0.383116 1.30603 4.37877
0.124375 0.382416 1.31334 4.36757
0.125625 0.381716 1.32066 4.35639
0.126875 0.381018 1.32797 4.34524
0.128125 0.380321 1.33529 4.33412
0.129375 0.379625 1.34261 4.32302
0.130625 0.37893 1.34992 4.31194
0.131875 0.378236 1.35724 4.30089
0.133125 0.377543 1.36455 4.28986
0.134375 0.376851 1.37187 4.27885
0.135625 0.37616 1.37919 4.26787
0.136875 0.37547 1.3865 4.25692
0.138125 0.374781 1.39382 4.24599
0.139375 0.374093 1.40113 4.23508
0.140625 0.373406 1.40845 4.2242
0.141875 0.37272 1.41576 4.21334
0.143125 0.372036 1.42308 4.2025
0.144375 0.371352 1.43039 4.19169
0.145625 0.370669 1.43771 4.18091
0.146875 0.369987 1.44502 4.17015
0.148125 0.369307 1.45233 4.15941
0.149375 0.368627 1.45965 4.1487
0.150625 0.367948 1.46696 4.13801
0.151875 0.367271 1.47427 4.12734
0.153125 0.366594 1.48159 4.1167
0.154375 0.365919 1.4889 4.10609
0.155625 0.365244 1.49621 4.0955
0.156875 0.364571 1.50352 4.08493
0.158125 0.363898 1.51083 4.07439
0.159375 0.363227 1.51814 4.06387
0.160625 0.362557 1.52545 4.05337
0.161875 0.361888 1.53275 4.0429
0.163125 0.36122 1.54006 4.03246
0.164375 0.360552 1.54737 4.02203
0.165625 0.359886 1.55467 4.01164
0.166875 0.359221 1.56198 4.00126
0.168125 0.358558 1.56928 3.99091
0.169375 0.357895 1.57658 3.98059
0.170625 0.357233 1.58389 3.97029
0.171875 0.356572 1.59119 3.96001
0.173125 0.355913 1.59849 3.94976
0.174375 0.355254 1.60578 3.93953
0.175625 0.354596 1.61308 3.92933
0.176875 0.35394 1.62038 3.91915
0.178125 0.353285 1.62767 3.90899
0.179375 0.35263 1.63497 3.89886
0.180625 0.351977 1.64226 3.88875
0.181875 0.351325 1.64955 3.87867
0.183125 0.350674 1.65684 3.86861
0.184375 0.350024 1.66413 3.85858
0.185625 0.349376 1.67142 3.84857
0.186875 0.348728 1.6787 3.83859
0.188125 0.348081 1.68599 3.82863
0.189375 0.347436 1.69327 3.81869
0.190625 0.346792 1.70055 3.80878
0.191875 0.346148 1.70783 3.79889
0.193125 0.345506 1.7151 3.78903
0.194375 0.344865 1.72238 3.7792
0.195625 0.344226 1.72965 3.76938
0.196875 0.343587 1.73692 3.7596
0.198125 0.34295 1.74419 3.74984
0.199375 0.342313 1.75145 3.7401
0.200625 0.341678 1.75871 3.73039
0.201875 0.341045 1.76597 3.72071
0.203125 0.340412 1.77322 3.71105
0.204375 0.339781 1.78047 3.70142
0.205625 0.33915 1.78772 3.69181
0.206875 0.338522 1.79497 3.68223
0.208125 0.337894 1.8022 3.67268
0.209375 0.337268 1.80944 3.66315
0.210625 0.336643 1.81667 3.65365
0.211875 0.33602 1.82389 3.64418
0.213125 0.335397 1.83111 3.63474
0.214375 0.334777 1.83833 3.62533
0.215625 0.334158 1.84553 3.61595
0.216875 0.33354 1.85273 3.60659
0.218125 0.332924 1.85992 3.59727
0.219375 0.33231 1.8671 3.58798
0.220625 0.331697 1.87428 3.57873
0.221875 0.331086 1.88144 3.5695
0.223125 0.330478 1.88859 3.56032
0.224375 0.329871 1.89572 3.55118
0.225625 0.329267 1.90283 3.54208
0.226875 0.328666 1.90992 3.53302
0.228125 0.328068 1.91699 3.52402
0.229375 0.327473 1.92402 3.51509
0.230625 0.326884 1.93101 3.50623
0.231875 0.326299 1.93794 3.49746
0.233125 0.325722 1.9448 3.4888
0.234375 0.325153 1.95156 3.48027
0.235625 0.324596 1.95821 3.47192
0.236875 0.324052 1.96469 3.46378
0.238125 0.323526 1.97097 3.45592
0.239375 0.323023 1.97699 3.44839
0.240625 0.322547 1.98269 3.44128
0.241875 0.322105 1.98799 3.43468
0.243125 0.321705 1.9928 3.42871
0.244375 0.321353 1.99702 3.42346
0.245625 0.321058 2.00057 3.41906
0.246875 0.320827 2.00334 3.41562
0.248125 0.320668 2.00526 3.41324
0.249375 0.320584 2.00627 3.41199
0.250625 0.320577 2.00635 3.4119
0.251875 0.320647 2.00551 3.41294
0.253125 0.320789 2.0038 3.41506
0.254375 0.320995 2.00133 3.41812
0.255625 0.321251 1.99824 3.42194
0.256875 0.321542 1.99475 3.42628
0.258125 0.321851 1.99104 3.43089
0.259375 0.322154 1.98741 3.43541
0.260625 0.322434 1.98405 3.43959
0.261875 0.322678 1.98112 3.44324
0.263125 0.322874 1.97878 3.44616
0.264375 0.323012 1.97711 3.44823
0.265625 0.323103 1.97605 3.44959
0.266875 0.323157 1.97539 3.4504
0.268125 0.323189 1.97498 3.45088
0.269375 0.323209 1.97475 3.45118
0.270625 0.323222 1.97462 3.45137
0.271875 0.323229 1.97453 3.45148
0.273125 0.323234 1.97446 3.45155
0.274375 0.323238 1.9744 3.45162
0.275625 0.323243 1.97435 3.45169
0.276875 0.323249 1.9743 3.45177
0.278125 0.323254 1.97423 3.45185
0.279375 0.32326 1.97415 3.45194
0.280625 0.323268 1.97405 3.45206
0.281875 0.323277 1.97394 3.4522
0.283125 0.323289 1.97382 3.45236
0.284375 0.3233 1.97367 3.45254
0.285625 0.323313 1.97352 3.45273
0.286875 0.323326 1.97337 3.45292
0.288125 0.323338 1.97322 3.45311
0.289375 0.32335 1.97308 3.45328
0.290625 0.32336 1.97295 3.45344
0.291875 0.323369 1.97285 3.45356
0.293125 0.323375 1.97278 3.45366
0.294375 0.323379 1.97274 3.45371
0.295625 0.323379 1.97273 3.45372
0.296875 0.323377 1.97275 3.45369
0.298125 0.323371 1.97282 3.4536
0.299375 0.323362 1.97294 3.45346
0.300625 0.323348 1.9731 3.45326
0.301875 0.323332 1.97329 3.45301
0.303125 0.323313 1.97352 3.45273
0.304375 0.323292 1.97377 3.45242
0.305625 0.323271 1.97403 3.45209
0.306875 0.323248 1.97429 3.45176
0.308125 0.323227 1.97455 3.45144
0.309375 0.323206 1.9748 3.45113
0.310625 0.323187 1.97502 3.45085
0.311875 0.323171 1.97522 3.4506
0.313125 0.323156 1.9754 3.45039
0.314375 0.323144 1.97554 3.45021
0.315625 0.323135 1.97565 3.45006
0.316875 0.323127 1.97575 3.44994
0.318125 0.32312 1.97583 3.44984
0.319375 0.323114 1.9759 3.44976
0.320625 0.32311 1.97595 3.44969
0.321875 0.323106 1.97599 3.44964
0.323125 0.323104 1.97602 3.4496
0.324375 0.323102 1.97604 3.44958
0.325625 0.323102 1.97605 3.44957
0.326875 0.323102 1.97605 3.44957
0.328125 0.323103 1.97604 3.44958
0.329375 0.323104 1.97602 3.44961
0.330625 0.323106 1.97599 3.44964
0.331875 0.323109 1.97596 3.44968
0.333125 0.323113 1.97592 3.44974
0.334375 0.323117 1.97587 3.44979
0.335625 0.323121 1.97582 3.44985
0.336875 0.323125 1.97577 3.44992
0.338125 0.323129 1.97572 3.44998
0.339375 0.323133 1.97568 3.45004
0.340625 0.323137 1.97563 3.45009
0.341875 0.32314 1.97559 3.45015
0.343125 0.323143 1.97555 3.45019
0.344375 0.323146 1.97551 3.45024
0.345625 0.323149 1.97548 3.45028
0.346875 0.323152 1.97544 3.45033
0.348125 0.323155 1.97541 3.45037
0.349375 0.323158 1.97538 3.45041
0.350625 0.323161 1.97534 3.45045
0.351875 0.323164 1.97531 3.4505
0.353125 0.323166 1.97528 3.45054
0.354375 0.323169 1.97524 3.45058
0.355625 0.323172 1.97521 3.45062
0.356875 0.323174 1.97518 3.45065
0.358125 0.323177 1.97515 3.45069
0.359375 0.323179 1.97512 3.45073
0.360625 0.323181 1.97509 3.45076
0.361875 0.323184 1.97507 3.4508
0.363125 0.323186 1.97504 3.45083
0.364375 0.323189 1.97501 3.45087
0.365625 0.323191 1.97498 3.45091
0.366875 0.323194 1.97495 3.45095
0.368125 0.323196 1.97492 3.45099
0.369375 0.323199 1.97488 3.45103
0.370625 0.323202 1.97485 3.45107
0.371875 0.323205 1.97482 3.45111
0.373125 0.323207 1.97479 3.45115
0.374375 0.323209 1.97476 3.45118
0.375625 0.323212 1.97473 3.45121
0.376875 0.323214 1.97471 3.45124
0.378125 0.323215 1.97469 3.45127
0.379375 0.323216 1.97468 3.45129
0.380625 0.323217 1.97466 3.4513
0.381875 0.323218 1.97466 3.45131
0.383125 0.323218 1.97465 3.45132
0.384375 0.323219 1.97465 3.45132
0.385625 0.323219 1.97465 3.45132
0.386875 0.323219 1.97464 3.45133
0.388125 0.323219 1.97464 3.45133
0.389375 0.323219 1.97464 3.45133
0.390625 0.323219 1.97464 3.45133
0.391875 0.323219 1.97464 3.45133
0.393125 0.323219 1.97464 3.45133
0.394375 0.323219 1.97464 3.45133
0.395625 0.323219 1.97464 3.45133
0.396875 0.323219 1.97464 3.45133
0.398125 0.323219 1.97464 3.45133
0.399375 0.323219 1.97464 3.45133
0.400625 0.32322 1.97464 3.45133
0.401875 0.32322 1.97464 3.45134
0.403125 0.32322 1.97463 3.45134
0.404375 0.323221 1.97463 3.45135
0.405625 0.323221 1.97462 3.45136
0.406875 0.323222 1.97461 3.45137
0.408125 0.323223 1.9746 3.45138
0.409375 0.323224 1.97459 3.4514
0.410625 0.323225 1.97458 3.45141
0.411875 0.323226 1.97457 3.45142
0.413125 0.323226 1.97456 3.45143
0.414375 0.323227 1.97455 3.45144
0.415625 0.323227 1.97455 3.45145
0.416875 0.323227 1.97455 3.45145
0.418125 0.323227 1.97455 3.45145
0.419375 0.323227 1.97455 3.45144
0.420625 0.323226 1.97456 3.45143
0.421875 0.323225 1.97457 3.45142
0.423125 0.323224 1.97459 3.4514
0.424375 0.323223 1.9746 3.45138
0.425625 0.323221 1.97462 3.45136
0.426875 0.32322 1.97463 3.45134
0.428125 0.323219 1.97464 3.45133
0.429375 0.323218 1.97466 3.45131
0.430625 0.323217 1.97466 3.4513
0.431875 0.323217 1.97467 3.45129
0.433125 0.323217 1.97467 3.45129
0.434375 0.323217 1.97467 3.45129
0.435625 0.323217 1.97467 3.4513
0.436875 0.323218 1.97466 3.45131
0.438125 0.323219 1.97465 3.45132
0.439375 0.32322 1.97464 3.45134
0.440625 0.323221 1.97462 3.45135
0.441875 0.323222 1.97461 3.45137
0.443125 0.323223 1.9746 3.45139
0.444375 0.323224 1.97459 3.4514
0.445625 0.323225 1.97458 3.45141
0.446875 0.323225 1.97457 3.45142
0.448125 0.323226 1.97457 3.45142
0.449375 0.323226 1.97457 3.45142
0.450625 0.323226 1.97457 3.45142
0.451875 0.323225 1.97457 3.45142
0.453125 0.323225 1.97457 3.45142
0.454375 0.323225 1.97458 3.45141
0.455625 0.323224 1.97458 3.4514
0.456875 0.323224 1.97459 3.4514
0.458125 0.323223 1.97459 3.45139
0.459375 0.323223 1.97459 3.45139
0.460625 0.323223 1.97459 3.45139
0.461875 0.323223 1.97459 3.45139
0.463125 0.323223 1.97459 3.45139
0.464375 0.323224 1.97459 3.4514
0.465625 0.323224 1.97458 3.4514
0.466875 0.323225 1.97457 3.45141
0.468125 0.323225 1.97457 3.45142
0.469375 0.323226 1.97456 3.45143
0.470625 0.323227 1.97455 3.45144
0.471875 0.323227 1.97454 3.45145
0.473125 0.323228 1.97454 3.45146
0.474375 0.323228 1.97453 3.45146
0.475625 0.323228 1.97453 3.45147
0.476875 0.323228 1.97453 3.45147
0.478125 0.323228 1.97453 3.45146
0.479375 0.323228 1.97454 3.45146
0.480625 0.323228 1.97454 3.45146
0.481875 0.323227 1.97454 3.45145
0.483125 0.323227 1.97455 3.45144
0.484375 0.323226 1.97456 3.45144
0.485625 0.323226 1.97456 3.45143
0.486875 0.323226 1.97456 3.45143
0.488125 0.323226 1.97457 3.45142
0.489375 0.323225 1.97457 3.45142
0.490625 0.323225 1.97457 3.45142
0.491875 0.323225 1.97457 3.45142
0.493125 0.323225 1.97457 3.45142
0.494375 0.323225 1.97457 3.45142
0.495625 0.323225 1.97457 3.45142
0.496875 0.323225 1.97457 3.45142
0.498125 0.323225 1.97457 3.45142
0.499375 0.323225 1.97457 3.45142
0.500625 0.323225 1.97457 3.45142
0.501875 0.323225 1.97458 3.45141
0.503125 0.323224 1.97458 3.45141
0.504375 0.323224 1.97459 3.4514
0.505625 0.323223 1.97459 3.45139
0.506875 0.323223 1.9746 3.45138
0.508125 0.323222 1.97461 3.45137
0.509375 0.323222 1.97461 3.45137
0.510625 0.323221 1.97461 3.45136
0.511875 0.323221 1.97462 3.45136
0.513125 0.323221 1.97462 3.45136
0.514375 0.323221 1.97461 3.45136
0.515625 0.323222 1.97461 3.45137
0.516875 0.323222 1.9746 3.45138
0.518125 0.323223 1.9746 3.45138
0.519375 0.323223 1.97459 3.45139
0.520625 0.323224 1.97458 3.4514
0.521875 0.323224 1.97458 3.45141
0.523125 0.323225 1.97457 3.45141
0.524375 0.323225 1.97457 3.45142
0.525625 0.323225 1.97457 3.45142
0.526875 0.323225 1.97457 3.45141
0.528125 0.323224 1.97458 3.45141
0.529375 0.323224 1.97458 3.4514
0.530625 0.323223 1.97459 3.45139
0.531875 0.323223 1.9746 3.45138
0.533125 0.323222 1.9746 3.45137
0.534375 0.323221 1.97461 3.45136
0.535625 0.323221 1.97462 3.45136
0.536875 0.32322 1.97463 3.45135
0.538125 0.32322 1.97463 3.45134
0.539375 0.32322 1.97463 3.45134
0.540625 0.32322 1.97463 3.45134
0.541875 0.32322 1.97463 3.45134
0.543125 0.32322 1.97463 3.45135
0.544375 0.323221 1.97462 3.45136
0.545625 0.323221 1.97461 3.45137
0.546875 0.323222 1.9746 3.45138
0.548125 0.323223 1.9746 3.45139
0.549375 0.323223 1.97459 3.45139
0.550625 0.323224 1.97458 3.4514
0.551875 0.323224 1.97458 3.45141
0.553125 0.323225 1.97457 3.45141
0.554375 0.323225 1.97457 3.45142
0.555625 0.323225 1.97457 3.45142
0.556875 0.323225 1.97457 3.45142
0.558125 0.323225 1.97457 3.45142
0.559375 0.323225 1.97457 3.45142
0.560625 0.323225 1.97457 3.45142
0.561875 0.323225 1.97457 3.45142
0.563125 0.323225 1.97457 3.45142
0.564375 0.323225 1.97457 3.45142
0.565625 0.323225 1.97457 3.45142
0.566875 0.323225 1.97457 3.45142
0.568125 0.323225 1.97456 3.45143
0.569375 0.323226 1.97456 3.45143
0.570625 0.323226 1.97456 3.45143
0.571875 0.323226 1.97456 3.45143
0.573125 0.323226 1.97456 3.45143
0.574375 0.323226 1.97456 3.45143
0.575625 0.323226 1.97456 3.45143
0.576875 0.323225 1.97456 3.45143
0.578125 0.323225 1.97457 3.45142
0.579375 0.323224 1.97458 3.45141
0.580625 0.323223 1.97459 3.4514
0.581875 0.323222 1.9746 3.45138
0.583125 0.323221 1.97461 3.45137
0.584375 0.32322 1.97462 3.45136
0.585625 0.32322 1.97463 3.45134
0.586875 0.323219 1.97464 3.45134
0.588125 0.323219 1.97464 3.45133
0.589375 0.323218 1.97464 3.45133
0.590625 0.323218 1.97464 3.45132
0.591875 0.323218 1.97464 3.45133
0.593125 0.323219 1.97464 3.45133
0.594375 0.323219 1.97464 3.45134
0.595625 0.32322 1.97463 3.45134
0.596875 0.32322 1.97462 3.45135
0.598125 0.323221 1.97462 3.45136
0.599375 0.323221 1.97461 3.45137
0.600625 0.323222 1.9746 3.45138
0.601875 0.323222 1.9746 3.45138
0.603125 0.323223 1.97459 3.45139
0.604375 0.323223 1.97459 3.45139
0.605625 0.323223 1.97459 3.45139
0.606875 0.323223 1.97459 3.45139
0.608125 0.323223 1.97459 3.4514
0.609375 0.323223 1.97459 3.4514
0.610625 0.323223 1.97459 3.4514
0.611875 0.323223 1.97458 3.4514
0.613125 0.323224 1.97458 3.45141
0.614375 0.323224 1.97458 3.45141
0.615625 0.323224 1.97457 3.45142
0.616875 0.323225 1.97456 3.45143
0.618125 0.323225 1.97456 3.45144
0.619375 0.323226 1.97455 3.45144
0.620625 0.323226 1.97454 3.45145
0.621875 0.323227 1.97454 3.45146
0.623125 0.323227 1.97454 3.45146
0.624375 0.323227 1.97453 3.45146
0.625625 0.323227 1.97453 3.45146
0.626875 0.323227 1.97454 3.45146
0.628125 0.323227 1.97454 3.45145
0.629375 0.323226 1.97455 3.45145
0.630625 0.323225 1.97456 3.45144
0.631875 0.323224 1.97456 3.45142
0.633125 0.323224 1.97457 3.45141
0.634375 0.323223 1.97458 3.4514
0.635625 0.323222 1.97459 3.45139
0.636875 0.323221 1.9746 3.45138
0.638125 0.323221 1.9746 3.45137
0.639375 0.323221 1.97461 3.45137
0.640625 0.323221 1.97461 3.45137
0.641875 0.32322 1.97461 3.45137
0.643125 0.32322 1.97461 3.45137
0.644375 0.323221 1.97461 3.45137
0.645625 0.323221 1.97461 3.45137
0.646875 0.323221 1.97461 3.45137
0.648125 0.323221 1.9746 3.45138
0.649375 0.323221 1.9746 3.45138
0.650625 0.323221 1.9746 3.45138
0.651875 0.323221 1.9746 3.45138
0.653125 0.323221 1.97461 3.45137
0.654375 0.32322 1.97461 3.45137
0.655625 0.32322 1.97461 3.45137
0.656875 0.32322 1.97461 3.45136
0.658125 0.323219 1.97462 3.45136
0.659375 0.323219 1.97462 3.45136
0.660625 0.323219 1.97462 3.45136
0.661875 0.323219 1.97462 3.45136
0.663125 0.323219 1.97462 3.45136
0.664375 0.323219 1.97462 3.45136
0.665625 0.32322 1.97461 3.45137
0.666875 0.32322 1.97461 3.45137
0.668125 0.32322 1.9746 3.45138
0.669375 0.323221 1.97459 3.45139
0.670625 0.323222 1.97458 3.4514
0.671875 0.323222 1.97458 3.45141
0.673125 0.323223 1.97457 3.45142
0.674375 0.323223 1.97456 3.45143
0.675625 0.323223 1.97456 3.45143
0.676875 0.323223 1.97456 3.45143
0.678125 0.323224 1.97456 3.45144
0.679375 0.323223 1.97455 3.45144
0.680625 0.323223 1.97456 3.45144
0.681875 0.323223 1.97456 3.45143
0.683125 0.323223 1.97456 3.45143
0.684375 0.323223 1.97456 3.45143
0.685625 0.323222 1.97456 3.45143
0.686875 0.323222 1.97456 3.45143
0.688125 0.323222 1.97456 3.45143
0.689375 0.323222 1.97456 3.45143
0.690625 0.323222 1.97456 3.45143
0.691875 0.323222 1.97456 3.45143
0.693125 0.323222 1.97456 3.45143
0.694375 0.323222 1.97455 3.45144
0.695625 0.323222 1.97455 3.45144
0.696875 0.323222 1.97455 3.45144
0.698125 0.323222 1.97455 3.45144
0.699375 0.323222 1.97455 3.45144
0.700625 0.323221 1.97455 3.45144
0.701875 0.323221 1.97456 3.45143
0.703125 0.32322 1.97456 3.45143
0.704375 0.32322 1.97457 3.45142
0.705625 0.323219 1.97457 3.45142
0.706875 0.323219 1.97458 3.45141
0.708125 0.323218 1.97458 3.45141
0.709375 0.323217 1.97458 3.4514
0.710625 0.323217 1.97459 3.4514
0.711875 0.323216 1.97459 3.45139
0.713125 0.323216 1.97459 3.45139
0.714375 0.323216 1.97459 3.4514
0.715625 0.323216 1.97458 3.4514
0.716875 0.323216 1.97458 3.45141
0.718125 0.323215 1.97457 3.45141
0.719375 0.323215 1.97457 3.45141
0.720625 0.323215 1.97457 3.45142
0.721875 0.323214 1.97457 3.45142
0.723125 0.323214 1.97457 3.45142
0.724375 0.323214 1.97456 3.45143
0.725625 0.323213 1.97456 3.45143
0.726875 0.323212 1.97456 3.45143
0.728125 0.32321 1.97457 3.45142
0.729375 0.323209 1.97458 3.45141
0.730625 0.323207 1.97458 3.4514
0.731875 0.323205 1.97458 3.4514
0.733125 0.323204 1.97458 3.45141
0.734375 0.323203 1.97457 3.45141
0.735625 0.323201 1.97458 3.45141
0.736875 0.323198 1.9746 3.45138
